#Parameters = {L=6; Pin=1; a=20; b=10; blendFmax=0.02; blendradius=2.85; blendraduis=2.8456603219661; d=5; phi=360; realphi=0; s=4; ta=16.03; tb=10.61; theta=0; totaltime=10; trh=1.69; wr=11.49; wt=0.91}
#"Length / mm"	"axis_e-field (f=8) (1) (realphi=0) [Real Part]"
#--------------------------------------------------------------
0.0000000000000	0.013165905893236
0.088046073913574	0.030422322245090
0.17609214782715	0.058498798831671
0.26413822174072	0.088008057046631
0.35218429565430	0.11824576540939
0.44022941589355	0.14907319547635
0.52827548980713	0.18045245645586
0.61632156372070	0.21237298399873
0.70436763763428	0.24483501168603
0.79241371154785	0.28365626361535
0.88045978546143	0.35141328729532
0.96850585937500	0.37707467450290
1.0565519332886	0.40346574449208
1.1445980072021	0.43056408788929
1.2326431274414	0.45835228371133
1.3206892013550	0.48681789287238
1.4087352752686	0.51450632883623
1.4967813491821	0.54150573393065
1.5848274230957	0.56907685083878
1.6728734970093	0.59775067792483
1.7609195709229	0.62824627925980
1.8489656448364	0.66141438199834
1.9370117187500	0.69817855492477
2.0250568389893	0.73936014186593
2.1131038665771	0.79773506015035
2.2011489868164	0.89006699302649
2.2891950607300	1.0300924347286
2.3772411346436	1.2276428231593
2.4652872085571	1.4871367996735
2.5533332824707	1.8091419282018
2.6413793563843	2.1925013152798
2.7294254302979	2.6356530584893
2.8174705505371	3.2731563361168
2.9055175781250	4.6863801611047
2.9935626983643	6.9595848569800
3.0816087722778	10.095265195579
3.1696548461914	14.090355258743
3.2577009201050	18.942240613517
3.3457469940186	24.649305756674
3.4337930679321	31.210596277577
3.5218386650085	40.349524904675
3.6098847389221	51.238433376949
3.6979308128357	62.810209475291
3.7859764099121	75.064093531346
3.8740224838257	87.999908047374
3.9620685577393	101.61744465688
4.0501146316528	115.91663108776
4.1381607055664	130.86871652093
4.2262067794800	146.27130374205
4.3142523765564	161.59052174493
4.4022984504700	176.81936634781
4.4903445243835	192.01748715530
4.5783905982971	207.18491029252
4.6664361953735	222.32152705763
4.7544822692871	237.42750510320
4.8425283432007	252.50278439143
4.9305744171143	267.56537102078
5.0186204910278	282.64601857900
5.1066660881042	297.66867850752
5.1947121620178	312.63346488121
5.2827582359314	327.54040633130
5.3708043098450	342.38938367243
5.4588499069214	357.18037305221
5.5468959808350	371.91353675908
5.6349420547485	386.36582531015
5.7229881286621	400.53839276546
5.8110342025757	414.58547682889
5.8990797996521	428.51480086538
5.9871258735657	442.32645581894
6.0751719474792	456.02032050170
6.1632180213928	469.59645810534
6.2512636184692	483.05474981469
6.3393096923828	496.58630560602
6.4273557662964	510.20687031492
6.5154018402100	523.81433331552
6.6034479141235	537.40879825048
6.6914935112000	550.66802212160
6.7795395851135	563.56977246429
6.8675856590271	576.33758634935
6.9556317329407	589.35417906048
7.0436773300171	602.43854779357
7.1317234039307	615.40708140351
7.2197694778442	627.66070092267
7.3078155517578	639.59229520510
7.3958616256714	651.41634784794
7.4839072227478	663.13252341957
7.5719532966614	674.74105720101
7.6599993705750	686.20472711530
7.7480454444885	697.59895735385
7.8360915184021	709.01702261227
7.9241371154785	720.32590500196
8.0121831893921	731.52590713391
8.1002292633057	742.61702716873
8.1882753372192	753.59914186514
8.2763214111328	764.47243377610
8.3643674850464	775.23659774710
8.4524135589600	785.89193950936
8.5404586791992	796.43815494122
8.6285047531128	806.54683666650
8.7165508270264	815.85219846849
8.8045969009399	824.97239804694
8.8926429748535	833.86883689481
8.9806890487671	842.56562012015
9.0687351226807	851.07758219454
9.1567811965942	859.40490613520
9.2448272705078	867.54734921708
9.3328723907471	875.50503636322
9.4209184646606	883.27803283692
9.5089645385742	890.86628315491
9.5970106124878	897.87421816361
9.6850566864014	904.39010005674
9.7731027603149	910.74284398431
9.8611488342285	916.88564655532
9.9491949081421	922.70007784331
10.037240982056	928.35308824549
10.125286102295	933.84462575768
10.213332176208	939.00009196847
10.301378250122	943.31078046859
10.389424324036	947.07053477170
10.477470397949	950.59405318302
10.565516471863	953.85383708250
10.653562545776	956.93656844047
10.741608619690	959.84260891350
10.829654693604	962.58639434818
10.917699813843	964.60373848116
11.005745887756	966.41476433120
11.093791961670	968.05439732363
11.181838035583	969.52255543387
11.269884109497	970.81921913892
11.357930183411	971.94437033189
11.445976257324	972.26500770026
11.534022331238	972.08318849354
11.622068405151	971.78485300083
11.710113525391	971.36983906999
11.798159599304	970.61285502810
11.886205673218	969.14757210379
11.974251747131	967.50197182890
12.062297821045	965.61138783811
12.150343894958	963.53369592363
12.238389968872	960.70554413776
12.326436042786	957.13120668176
12.414482116699	953.39139612395
12.502527236938	949.48704684524
12.590573310852	945.41504594478
12.678619384766	941.14956676134
12.766665458679	936.71733976335
12.854711532593	932.11826705559
12.942757606506	927.35243823944
13.030803680420	922.41970322550
13.118849754333	917.32003849769
13.206895828247	911.36027194854
13.294940948486	904.77919515390
13.382987022400	897.83509058409
13.471033096313	890.68932329883
13.559079170227	883.34180067113
13.647125244141	875.79249730717
13.735171318054	867.98737634614
13.823217391968	859.91428117272
13.911263465881	851.37236561430
13.999309539795	842.51184432567
14.087354660034	833.47077791968
14.175400733948	824.19282692967
14.263446807861	814.75218039818
14.351492881775	805.14912747714
14.439538955688	795.38353274577
14.527585029602	785.45823007808
14.615631103516	774.93526680692
14.703677177429	764.27954063800
14.791723251343	753.54248224991
14.879769325256	742.72428985942
14.967814445496	731.82522685796
15.055860519409	720.84488971543
15.143906593323	709.78336802016
15.231952667236	698.57127458807
15.319998741150	686.81716805915
15.408044815063	675.03112654675
15.496090888977	663.21315516735
15.584136962891	651.33704758645
15.672183036804	639.42166616699
15.760228157043	627.36843577047
15.848274230957	614.76698819532
15.936320304871	601.79544582453
16.024366378784	588.85089596224
16.112411499023	575.93354570515
16.200458526611	562.73180162431
16.288503646851	549.37027158940
16.376550674438	536.11992670921
16.464595794678	523.02985414469
16.552642822266	509.87070895015
16.640687942505	496.64310575929
16.728734970093	483.24781849331
16.816780090332	469.64858706079
16.904827117920	455.95606415105
16.992872238159	442.17088845187
17.080917358398	428.29284407197
17.168964385986	414.32410567634
17.257009506226	399.97520637684
17.345056533813	385.58162504019
17.433101654053	371.28601016610
17.521148681641	356.92969674482
17.609193801880	342.22170905017
17.697240829468	327.43446432907
17.785285949707	312.56855583885
17.873331069946	297.62363128422
17.961378097534	282.59936951575
18.049423217773	267.49636566515
18.137470245361	252.35897323447
18.225515365601	237.25623088929
18.313562393188	222.13136461212
18.401607513428	206.98504605333
18.489654541016	191.81674161064
18.577699661255	176.62710809225
18.665744781494	161.41584133654
18.753791809082	146.18260717627
18.841836929321	130.86940179763
18.929883956909	115.95392892940
19.017929077148	101.67192866600
19.105976104736	88.022846626903
19.194021224976	75.007425521830
19.282068252563	62.625301359964
19.370113372803	50.877368941849
19.458158493042	39.764093827020
19.546205520630	31.148761620937
19.634250640869	23.846039678820
19.722297668457	17.760093340817
19.810342788696	12.892556273900
19.898389816284	9.2438138595732
19.986434936523	7.0312474976316
20.074481964111	5.6085284812439
20.162527084351	4.3897401195967
20.250572204590	3.3776182339406
20.338619232178	2.5775146845442
20.426664352417	1.9964637957759
20.514711380005	1.6617018869962
20.602756500244	1.4690385182082
20.690803527832	1.3513867847262
20.778848648071	1.2294585489035
20.866895675659	1.1232341058942
20.954940795898	1.0305299308255
21.042985916138	0.94500735750742
21.131032943726	0.89162653737504
21.219078063965	0.85527511938140
21.307125091553	0.82020023749553
21.395170211792	0.78573537926691
21.483217239380	0.75165993577875
21.571262359619	0.71831319851923
21.659309387207	0.67933558771113
21.747354507446	0.63702123588949
21.835399627686	0.59573097635604
21.923446655273	0.55554223793859
22.011491775513	0.51660875280038
22.099538803101	0.47918181830494
22.187583923340	0.44365274200668
22.275630950928	0.39815168376021
22.363676071167	0.33848084770326
22.451723098755	0.24317129723979
22.539768218994	0.20520863708812
22.627813339233	0.16626008236350
22.715860366821	0.12626298120736
22.803905487061	0.085172870495236
22.891952514648	0.043017697763669
22.979999542236	0.0000000000000
#Parameters = {L=6; Pin=1; a=20; b=10; blendFmax=0.02; blendradius=2.85; blendraduis=2.8456603219661; d=5; phi=360; realphi=0; s=4; ta=16.03; tb=10.61; theta=3; totaltime=10; trh=1.69; wr=11.49; wt=0.91}
#"Length / mm"	"axis_e-field (f=8) (1) (realphi=0) [Real Part]"
#--------------------------------------------------------------
0.0000000000000	0.0000000000000
0.091190338134766	28.559418005410
0.18238067626953	57.408466144152
0.27357101440430	86.314950356536
0.36476230621338	115.27909920676
0.45595264434814	144.30006946050
0.54714298248291	173.30682423523
0.63833332061768	202.16675130645
0.72952365875244	230.91396047125
0.82071399688721	259.42986567700
0.91190528869629	287.75106887144
1.0030956268311	315.93547283240
1.0942859649658	343.57219780699
1.1854763031006	370.57744973042
1.2766666412354	397.06572099990
1.3678569793701	423.25894897536
1.4590473175049	448.94253772702
1.5502376556396	474.28829610723
1.6414289474487	499.32722029400
1.7326192855835	522.37077115083
1.8238096237183	544.65721456545
1.9149999618530	566.31950351564
2.0061902999878	587.35776643887
2.0973815917969	607.77213389288
2.1885719299316	627.54973978233
2.2797622680664	646.69945620045
2.3709526062012	665.22549812992
2.4621429443359	681.59142895187
2.5533332824707	696.19141064030
2.6445236206055	709.62491094958
2.7357139587402	721.98905869601
2.8269042968750	733.59798959872
2.9180955886841	744.30855159757
3.0092859268188	752.90836784902
3.1004762649536	755.68827499311
3.1916666030884	786.79443459761
3.2828569412231	803.51361329996
3.3740482330322	804.75387311435
3.4652385711670	790.59442334346
3.5564289093018	652.16489625242
3.6476192474365	511.07767216880
3.7388095855713	382.47682324247
3.8299999237061	268.48651055034
3.9211907386780	217.00006203155
4.0123810768127	190.20189629016
4.1035714149475	186.00394441005
4.1947622299194	184.37810545321
4.2859525680542	185.66193170819
4.3771429061890	190.07131598533
4.4683337211609	198.28505222864
4.5595240592957	208.25718626426
4.6507143974304	221.53847018747
4.7419047355652	235.71487881805
4.8330955505371	250.31561804851
4.9242858886719	265.18594825664
5.0154762268066	280.20591404295
5.1066670417786	295.35553582336
5.1978573799133	310.46637853042
5.2890477180481	325.53544690819
5.3802385330200	340.56003922230
5.4714288711548	355.53795412637
5.5626192092896	370.46754259844
5.6538095474243	385.25018546402
5.7450003623962	399.58018122671
5.8361907005310	413.78568368798
5.9273810386658	427.86606467221
6.0185718536377	441.82077650259
6.1097621917725	455.64902761055
6.2009525299072	469.35049825040
6.2921428680420	483.09633585419
6.3833336830139	497.03902596065
6.4745240211487	510.99885922668
6.5657143592834	524.92114873456
6.6569051742554	538.26877320065
6.7480955123901	551.47536047547
6.8392858505249	564.58583477352
6.9304766654968	577.66878720205
7.0216670036316	590.67266453487
7.1128573417664	603.33097905696
7.2040476799011	615.84672876967
7.2952384948730	628.23876893075
7.3864288330078	640.50163535655
7.4776191711426	652.64452469507
7.5688099861145	664.73332787257
7.6600003242493	676.79604076223
7.7511906623840	688.73617384904
7.8423814773560	700.55823740454
7.9335718154907	712.26196776085
8.0247621536255	723.63152077681
8.1159524917603	734.56595259667
8.2071428298950	745.37000088039
8.2983341217041	756.04387468470
8.3895244598389	766.58890508986
8.4807147979736	776.55665521192
8.5719051361084	786.32835481070
8.6630954742432	796.01617281617
8.7542858123779	805.61068462951
8.8454761505127	814.88501331034
8.9366674423218	824.02268547026
9.0278577804565	833.00647732708
9.1190481185913	841.81175859535
9.2102384567261	850.43849553713
9.3014287948608	858.88644662605
9.3926191329956	867.15552644247
9.4838094711304	874.91965886425
9.5750007629395	882.09916093328
9.6661911010742	888.48577199887
9.7573814392090	894.68893180856
9.8485717773438	900.70880102400
9.9397621154785	906.54493454741
10.030952453613	912.19780574482
10.122142791748	917.44309278411
10.213334083557	922.42477983085
10.304524421692	927.10607330561
10.395714759827	931.31227301430
10.486905097961	935.31554363401
10.578095436096	939.11571843035
10.669285774231	942.71293729093
10.760477066040	946.10734067901
10.851667404175	949.29870460753
10.942857742310	952.18211391881
11.034048080444	953.99775424811
11.125238418579	955.49771523086
11.216428756714	956.69077551509
11.307619094849	957.15369505818
11.398810386658	957.43124705346
11.490000724792	957.52277307033
11.581191062927	957.42853117898
11.672381401062	957.14847464566
11.763571739197	956.68255839474
11.854762077332	956.03098292238
11.945952415466	954.79454453064
12.037143707275	952.31444885935
12.128334045410	949.39725245162
12.219524383545	946.30401125192
12.310714721680	943.03481825996
12.401905059814	939.58958507081
12.493095397949	935.96841148196
12.584285736084	931.79279840674
12.675477027893	927.36075093225
12.766667366028	922.64896477801
12.857857704163	917.50402015306
12.949048042297	912.18306181871
13.040238380432	906.68674790315
13.131428718567	901.01315881685
13.222620010376	895.16214879611
13.313810348511	889.13406850303
13.405000686646	882.90193148580
13.496191024780	875.63852724930
13.587381362915	867.88589602712
13.678571701050	860.00186143957
13.769762039185	851.75088928821
13.860953330994	842.96571231310
13.952143669128	834.05599893821
14.043334007263	825.02175623039
14.134524345398	815.88896509206
14.225714683533	806.66090971848
14.316905021667	797.29676132840
14.408095359802	787.18377387732
14.499286651611	776.61488294017
14.590476989746	765.98937820474
14.681667327881	755.31310476025
14.772857666016	744.81019947523
14.864048004150	734.12321026102
14.955238342285	723.25122481225
15.046428680420	711.65502451493
15.137619972229	699.97618393885
15.228810310364	688.22645681439
15.320000648499	676.50946436674
15.411190986633	664.87013250259
15.502381324768	653.11626900483
15.593571662903	641.24776022744
15.684762954712	629.26443650387
15.775953292847	616.96562167299
15.867143630981	604.22454583919
15.958333969116	591.32986240266
16.049524307251	578.28145676942
16.140714645386	565.07928203237
16.231904983521	551.72342092779
16.323095321655	538.21378179370
16.414285659790	524.71065791304
16.505475997925	511.14993672967
16.596668243408	497.51414505933
16.687858581543	483.80393002165
16.779048919678	470.01926510555
16.870239257812	456.16055450645
16.961429595947	442.22787621320
17.052619934082	428.13107115730
17.143810272217	413.81688301227
17.235000610352	399.28208130436
17.326190948486	384.64339651047
17.417381286621	369.90084917897
17.508571624756	355.05441627104
17.599761962891	340.14757398457
17.690952301025	325.31816146963
17.782142639160	310.28591292596
17.873334884644	295.19824714980
17.964525222778	280.09869276197
18.055715560913	264.98928450391
18.146905899048	250.03640492915
18.238096237183	235.36595339330
18.329286575317	221.21585162049
18.420476913452	207.85041612945
18.511667251587	196.86672616059
18.602857589722	189.40789492368
18.694047927856	186.10460686935
18.785238265991	187.96503069085
18.876428604126	192.35813348880
18.967618942261	198.14608680774
19.058811187744	217.73976226431
19.150001525879	264.89879955107
19.241191864014	372.31681849149
19.332382202148	505.36839461873
19.423572540283	650.65565704043
19.514762878418	792.55264224844
19.605953216553	807.25427049600
19.697143554688	807.13693420183
19.788333892822	792.15656262476
19.879524230957	762.29114496229
19.970714569092	752.08166092190
20.061904907227	744.23965197770
20.153095245361	735.05150565606
20.244285583496	724.66070133663
20.335477828979	712.94704443392
20.426668167114	699.46136991726
20.517858505249	684.20217495430
20.609048843384	666.99370607511
20.700239181519	648.53263634505
20.791429519653	629.43406557461
20.882619857788	609.67824570022
20.973810195923	589.26726232536
21.065000534058	568.25495652776
21.156190872192	546.64150396301
21.247381210327	524.30536326812
21.338571548462	500.26509190668
21.429761886597	475.70254245295
21.520954132080	450.62040245850
21.612144470215	424.96732835207
21.703334808350	398.48637151074
21.794525146484	371.66262854704
21.885715484619	344.49616076749
21.976905822754	316.98690709713
22.068096160889	289.13486774375
22.159286499023	260.86720116608
22.250476837158	231.89200725880
22.341667175293	202.91373197927
22.432857513428	173.92563261874
22.524047851562	144.92770900167
22.615238189697	115.92000694514
22.706428527832	86.902472982433
22.797620773315	57.874549416025
22.888811111450	28.837415007655
22.979999542236	0.20907610133403
#Parameters = {L=6; Pin=1; a=20; b=10; blendFmax=0.02; blendradius=2.85; blendraduis=2.8456603219661; d=5; phi=405; realphi=45; s=4; ta=16.03; tb=10.61; theta=3; totaltime=10; trh=1.69; wr=11.49; wt=0.91}
#"Length / mm"	"axis_e-field (f=8) (1) (realphi=45) [Real Part]"
#---------------------------------------------------------------
0.0000000000000	1.5582974201827
0.097373008728027	21.507726875815
0.19474601745605	41.480179402978
0.29211902618408	61.469819985685
0.38949108123779	81.476053214838
0.48686408996582	101.49919398887
0.58423709869385	121.53904823360
0.68161010742188	141.59556470170
0.77898311614990	161.47059199874
0.87635612487793	181.09087741149
0.97372913360596	200.52957849892
1.0711021423340	219.78669076453
1.1684741973877	238.86202874854
1.2658472061157	257.75598917017
1.3632202148438	276.09393346617
1.4605932235718	293.85774690453
1.5579662322998	310.77538006432
1.6553392410278	327.34092213267
1.7527122497559	343.55442613615
1.8500843048096	359.41573490388
1.9474573135376	374.92527444336
2.0448303222656	389.57330564403
2.1422033309937	403.39435938337
2.2395763397217	415.75766715799
2.3369493484497	427.50996135920
2.4343223571777	438.79982588162
2.5316944122314	449.62734528364
2.6290683746338	459.99279912468
2.7264404296875	469.45373935026
2.8238134384155	476.98911282288
2.9211864471436	484.44601151104
3.0185594558716	497.22719651949
3.1159324645996	509.63330624307
3.2133045196533	522.48595624289
3.3106784820557	538.81856332816
3.4080505371094	523.62880327228
3.5054235458374	482.91136861176
3.6027965545654	446.72807555392
3.7001695632935	354.10319814508
3.7975425720215	267.08612592839
3.8949155807495	184.44437824346
3.9922881126404	125.38061939805
4.0896611213684	129.57126075848
4.1870341300964	144.44474949557
4.2844066619873	161.27832030088
4.3817796707153	178.49562647470
4.4791526794434	195.23132359691
4.5765256881714	211.74869656326
4.6738982200623	227.96558242685
4.7712712287903	244.47978720647
4.8686442375183	261.59249366259
4.9660167694092	278.55794505268
5.0633897781372	295.46021700158
5.1607627868652	312.15452325954
5.2581357955933	328.78043838588
5.3555083274841	345.13659239769
5.4528813362122	361.35266048894
5.5502543449402	377.63659515436
5.6476273536682	393.83071285217
5.7449998855591	409.93416339943
5.8423728942871	425.85284478802
5.9397459030151	441.64815639493
6.0371189117432	457.28313509371
6.1344914436340	472.77255769935
6.2318644523621	488.18333915336
6.3292374610901	503.43598272239
6.4266099929810	518.51925567592
6.5239830017090	533.70998564862
6.6213560104370	548.42177523146
6.7187290191650	562.96410106157
6.8161015510559	577.38430304819
6.9134745597839	591.78191385001
7.0108475685120	606.01195033137
7.1082205772400	620.05001036382
7.2055931091309	633.89582207876
7.3029661178589	647.54966709845
